time, angle [deg], U Currrent [A], V Current [A], W Current [A] , Id[A], Iq[A]
0.155,14.6136,-0.0498273,0.0255831,0.0242442,0.0155105,0.0590293
0.156,15.4047,-0.0225871,0.065048,-0.0424609,0.0808924,0.00088243
0.158,16.4595,-0.0438477,-0.0354083,0.079256,-0.0489027,0.084062
0.159,17.6901,-0.0651083,0.0243871,0.0407212,0.0363538,0.0716106
0.16,19.0746,-0.054478,0.091358,-0.03688,0.111091,-0.0182511
0.162,20.5469,-0.035875,0.0255831,0.010292,0.0421222,0.0165274
0.163,21.9314,-0.076403,0.0363462,0.0400568,0.0836279,0.0420641
0.164,23.206,-0.0338818,0.0387381,-0.00485622,0.0486318,-0.0175255
0.166,24.3267,-0.0225871,0.149958,-0.12737,0.0557772,-0.190025
0.167,25.2716,-0.0338818,-0.00670648,0.0405883,0.0408476,0.0342321
0.168,26.2825,-0.0624507,0.0040567,0.058394,0.0812966,0.0267822
0.171,27.3153,-0.076403,0.0734194,0.00298361,0.0815668,-0.0677022
0.172,27.5791,-0.039197,0.0542849,-0.0150879,0.0353713,-0.0588198
0.174,27.7109,-0.0704235,-0.00790239,0.0783259,0.0986279,0.0378072
0.175,27.6889,-0.035875,0.0554808,-0.0196058,0.0331054,-0.0604446
0.178,26.8319,-0.0345462,0.0865744,-0.0520282,0.0296791,-0.102541
0.18,25.8869,-0.054478,0.0554808,-0.00100275,0.0661952,-0.0408065
0.182,25.0299,-0.0312243,0.127235,-0.096011,0.0525314,-0.153696
0.183,24.085,-0.0332174,0.0363462,-0.0031288,0.0471695,-0.0144662
0.185,20.503,-0.0710879,-0.00311875,0.0742066,0.0286168,0.0990483
0.189,18.5472,-0.0431833,0.0160158,0.0271676,0.0239277,0.047821
0.192,17.0529,-0.0272379,-0.00192284,0.0291607,-0.00599061,0.0394976
0.195,15.8222,-0.061122,0.078203,-0.0170811,0.0891577,0.0468431
0.197,15.6904,-0.0518205,-0.00311875,0.0549392,-0.0170855,0.0736307
0.198,15.8882,-0.0551424,0.0315626,0.0235798,0.0297034,0.0608347
0.2,16.1738,-0.0225871,-0.00311875,0.0257059,-0.0073764,0.0335602
0.201,16.921,-0.0451765,0.0542849,-0.00910835,0.06613,0.0264111
0.203,17.5803,-0.0518205,0.0746153,-0.0227949,0.0928392,0.0123815
0.204,18.5692,-0.0252447,0.0100362,0.0152085,0.0176892,0.0256205
0.206,19.8877,-0.0564712,0.00644852,0.0500227,0.0349715,0.0671554
0.208,21.382,-0.054478,-0.00311875,0.0575968,0.0383614,0.0690346
0.21,22.7005,-0.0737454,-0.00311875,0.0768642,0.0672904,0.082633
0.212,23.7114,-0.0684303,0.0722235,-0.00379321,0.0929765,-0.0366151
0.214,24.6344,-0.0551424,-0.0234492,0.0785916,0.0627199,0.0763768
0.218,25.2277,-0.0225871,0.0734194,-0.0508323,0.0328347,-0.0860604
0.219,25.1178,-0.095006,0.0925539,0.00245208,0.120982,-0.0544218
0.221,24.8541,-0.0438477,0.078203,-0.0343553,0.062345,-0.0730187
0.222,24.3707,-0.0657727,0.0172117,0.048561,0.0735427,0.0396476
0.225,23.2719,-0.0438477,0.0722235,-0.0283758,0.072936,-0.0512287
0.226,22.4808,-0.0657727,0.0925539,-0.0267812,0.107323,-0.0457317
0.227,21.7116,-0.0438477,-0.0222533,0.066101,0.0174115,0.0807057
0.229,20.8326,-0.0651083,0.0435217,0.0215866,0.0742506,0.0329555
0.23,20.0855,-0.0710879,0.0746153,-0.00352745,0.102056,0.0153111
0.231,19.2284,-0.0465053,-0.00192284,0.0484281,0.0137594,0.0658537
0.233,18.679,-0.0704235,0.053089,0.0173345,0.0747944,0.0498416
0.234,18.1736,-0.0445121,0.0172117,0.0273004,0.0267766,0.0480915
0.236,17.866,-0.0312243,0.026779,0.00444529,0.0347146,0.0225105
0.237,17.6462,-0.0119568,0.0746153,-0.0626585,0.0890087,-0.0413998
0.239,17.7121,-0.0445121,0.065048,-0.0205359,0.0807418,0.0107265
0.24,17.9758,-0.0279023,0.0925539,-0.0646517,0.109617,-0.038842
0.242,18.5032,-0.054478,-0.0114901,0.0659681,0.0018336,0.0863036
0.243,19.1625,-0.0710879,0.112884,-0.0417965,0.138844,-0.0162959
0.245,19.7558,-0.054478,0.0710276,-0.0165496,0.0909521,-0.00379092
0.246,20.5469,-0.0551424,0.0554808,-0.000338354,0.0779502,0.00653347
0.248,21.2721,-0.0511561,0.053089,-0.0019329,0.0737191,-0.00214581
0.249,21.9973,-0.0438477,0.112884,-0.0690367,0.102434,-0.0945453
0.251,22.5906,-0.0332174,0.0363462,-0.0031288,0.0478133,-0.0125554
0.253,23.2279,-0.0491629,0.112884,-0.0637215,0.0942641,-0.101659
0.254,23.4916,-0.0445121,0.0746153,-0.0301032,0.0717663,-0.0574854
0.256,23.6235,-0.020594,0.0315626,-0.0109686,0.0318803,-0.0228969
0.257,23.6235,-0.0225871,0.0566767,-0.0340895,0.0434251,-0.0547612
0.259,23.3598,-0.0252447,0.0255831,-0.000338342,0.0349406,-0.00842961
0.26,22.9203,-0.0597932,0.111688,-0.0518953,0.107728,-0.0839025
0.262,22.4588,-0.0438477,0.0925539,-0.0487062,0.0895233,-0.0696185
0.263,21.8655,-0.0710879,0.0817908,-0.0107029,0.107538,-0.0171269
0.265,21.2282,-0.0551424,0.0674399,-0.0122974,0.0872186,-0.0115313
0.266,20.6348,-0.0338818,0.0734194,-0.0395376,0.0807465,-0.0397695
0.268,20.1734,-0.0431833,-0.0210574,0.0642407,0.00172136,0.0802005
0.269,19.7119,-0.0551424,0.00644852,0.0486939,0.0290909,0.0680307
0.271,19.4262,-0.0657727,0.065048,0.000724672,0.0894088,0.0237464
0.273,19.3383,-0.0551424,0.0411299,0.0140126,0.0612575,0.034296
0.274,19.2724,-0.0332174,0.0554808,-0.0222633,0.0676009,-0.0103578
0.276,19.4262,-0.0551424,0.0411299,0.0140126,0.0623305,0.032305
0.277,19.6899,-0.0604576,0.0746153,-0.0141577,0.0970356,0.00240464
0.279,20.0635,-0.0498273,-0.0210574,0.0708847,0.00541031,0.0889727
0.28,20.4151,-0.0524848,0.104513,-0.0520282,0.117632,-0.0504717
0.282,20.8326,-0.017272,0.065048,-0.0477761,0.0615793,-0.0549556
0.283,21.2062,-0.017272,0.0363462,-0.0190742,0.0382313,-0.0228378
0.285,21.5798,-0.017272,0.0554808,-0.0382088,0.0497952,-0.0485467
0.286,21.8435,-0.0578,0.026779,0.031021,0.0619338,0.0342496
0.288,22.0632,-0.0498273,0.0734194,-0.0235921,0.0843594,-0.0360122
0.289,22.2171,-0.0232515,-0.000726934,0.0239785,0.0186037,0.0277495
0.291,22.239,-0.0272379,0.0626562,-0.0354183,0.0593616,-0.0489732
0.293,22.1731,-0.0445121,0.039934,0.00457816,0.0599613,0.00160876
0.295,21.9094,-0.073081,0.0746153,-0.00153427,0.104245,-0.00660879
0.296,21.6237,-0.0285667,0.078203,-0.0496364,0.0746945,-0.061776
0.298,21.2721,-0.0471697,0.0770071,-0.0298374,0.0887666,-0.0341445
0.3,20.9864,-0.0338818,0.0590685,-0.0251867,0.067222,-0.0274343
0.301,20.8326,-0.0418546,0.121256,-0.0794012,0.123748,-0.0862881
0.303,20.503,-0.0338818,0.0542849,-0.020403,0.0648594,-0.0174461
0.304,20.3272,-0.0531492,-0.0186656,0.0718148,0.0113919,0.0905585
0.306,20.1953,-0.0225871,0.078203,-0.0556159,0.0811397,-0.0559944
0.307,20.1294,-0.0631151,0.0710276,-0.00791245,0.0951621,0.00593438
0.309,20.0635,-0.0551424,0.0207994,0.034343,0.0462414,0.0501445
0.31,20.1734,-0.0438477,0.0363462,0.0075015,0.0546842,0.0175948
0.312,20.2832,-0.0338818,0.0363462,-0.00246441,0.0496427,0.0032712
0.313,20.503,-0.0657727,0.065048,0.000724672,0.0918133,0.0110735
0.315,20.7008,-0.0518205,0.0698317,-0.0180112,0.0876401,-0.0145685
0.316,20.9205,-0.0411902,0.0554808,-0.0142906,0.0693107,-0.0134145
0.318,21.1183,-0.0445121,-0.00311875,0.0476309,0.0268781,0.0593302
0.319,21.2721,-0.0199296,0.0160158,0.00391378,0.0253209,0.00527829
0.321,21.404,-0.00730609,0.065048,-0.057742,0.0513744,-0.0705651
0.322,21.4699,-0.054478,0.0985335,-0.0440555,0.107627,-0.0550811
0.324,21.4919,-0.0385326,0.0172117,0.0213209,0.0398245,0.0254871
0.325,21.5139,-0.0338818,0.130823,-0.0969412,0.115863,-0.119315
0.327,21.4699,-0.0338818,0.0351503,-0.0012685,0.0488093,-0.00166902
0.328,21.4479,-0.0524848,0.065048,-0.0125632,0.0831542,-0.0151369
0.33,21.2941,-0.054478,0.0375421,0.0169359,0.0647185,0.0218083
0.331,21.2502,-0.0631151,0.0506971,0.012418,0.0799876,0.0176042
0.332,21.1623,-0.039197,0.065048,-0.0258511,0.0748593,-0.0288447
0.334,21.1403,-0.0518205,0.0447176,0.00710286,0.0678534,0.0114622
0.335,21.1403,-0.0438477,0.0351503,0.00869741,0.0554162,0.0127614
0.337,21.0963,-0.0285667,0.0889662,-0.0603995,0.0864193,-0.0698452
0.339,20.9864,0.0033242,0.0459135,-0.0492377,0.0333271,-0.0585898
0.34,20.9205,-0.0657727,0.0542849,0.0114878,0.0838573,0.0193086
0.342,20.9205,-0.0657727,0.0877703,-0.0219976,0.110192,-0.0192679
0.343,20.8106,-0.0531492,0.0148199,0.0383294,0.0445191,0.0503155
0.345,20.7008,-0.054478,0.132019,-0.0775409,0.139786,-0.0825066
0.346,20.7227,-0.0225871,0.0985335,-0.0759463,0.0937947,-0.0847905
0.348,20.7227,-0.054478,0.112884,-0.0584064,0.124228,-0.0607413
0.349,20.7227,-0.0332174,0.0315626,0.00165484,0.0454455,0.0060864
0.351,20.7447,-0.0438477,0.155937,-0.112089,0.151897,-0.125421
0.352,20.7887,-0.0219227,0.0447176,-0.0227948,0.0491583,-0.0241524
0.354,20.8326,-0.0305599,0.0578726,-0.0273127,0.0647213,-0.0289875
0.355,20.8985,-0.0312243,0.0746153,-0.0433911,0.078251,-0.0479788
0.357,20.8985,-0.035875,0.0554808,-0.0196058,0.0660167,-0.0197816
0.358,20.9864,-0.0551424,0.0160158,0.0391266,0.0473836,0.050822
0.36,20.9645,-0.0112925,0.0148199,-0.00352743,0.0186705,-0.00331702
0.361,21.0304,-0.0431833,-0.0318206,0.0750039,0.00331084,0.0921519
0.363,20.9864,-0.0651083,-0.00192284,0.0670312,0.0399546,0.0844961
0.365,20.9864,-0.0651083,0.0411299,0.0239785,0.0734266,0.0333804
0.366,20.9425,-0.0232515,0.0554808,-0.0322292,0.0579167,-0.0360988
0.368,20.8326,-0.0604576,0.0351503,0.0253072,0.0651711,0.0358307
0.369,20.8106,-0.0524848,0.0734194,-0.0209346,0.0907583,-0.0186082
0.371,20.7447,-0.0445121,0.0734194,-0.0289073,0.0861296,-0.0280904
0.372,20.7667,-0.054478,0.133215,-0.0787368,0.139614,-0.0861479
0.374,20.7667,-0.054478,0.0937499,-0.0392718,0.108566,-0.0388921
0.375,20.7667,-0.0345462,0.0112322,0.0233141,0.0297067,0.0313155
0.377,20.8106,-0.0279023,0.065048,-0.0371458,0.0690781,-0.040222
0.378,20.7887,-0.0491629,0.0255831,0.0235798,0.0504365,0.0329189
0.38,20.8326,-0.0597932,0.0746153,-0.0148221,0.0960795,-0.0114495
0.381,20.8106,-0.0332174,0.0351503,-0.00193289,0.0483874,0.00115571
0.383,20.8546,-0.054478,-0.00192284,0.0564009,0.0326143,0.0713367
0.384,20.8985,-0.0651083,0.0937499,-0.0286415,0.114137,-0.0286564
0.385,20.9205,-0.0199296,0.0758112,-0.0558817,0.0714687,-0.0643022
0.387,20.8985,-0.0571356,0.0315626,0.025573,0.0610295,0.0344972
0.388,20.9205,-0.0252447,0.078203,-0.0529583,0.0768692,-0.0604047
0.39,20.9425,-0.0445121,0.0734194,-0.0289073,0.0855064,-0.0301631
0.392,20.8985,-0.0584644,0.110493,-0.0520282,0.12289,-0.0561877
0.393,20.8766,-0.0471697,0.0746153,-0.0274456,0.0883321,-0.0282074
0.395,20.7447,-0.0538136,0.00644852,0.0473651,0.037951,0.061161
0.397,20.8326,-0.0551424,0.0614603,-0.0063179,0.082795,-0.00171944
0.399,20.7887,-0.0551424,0.0554808,-0.000338354,0.0780309,0.00569599
0.401,20.7887,-0.0445121,0.065048,-0.0205359,0.0791984,-0.019024
0.403,20.7667,-0.0591288,0.0172117,0.0419171,0.0496576,0.0555303
0.404,20.8326,-0.0225871,0.0734194,-0.0508323,0.0722359,-0.0571532
0.406,20.8985,-0.0345462,0.0315626,0.00298362,0.0463751,0.00692055
0.408,20.8766,-0.0524848,0.109297,-0.0568118,0.118493,-0.0620316
0.41,20.9205,-0.0312243,0.0351503,-0.00392607,0.0471366,-0.00201441
0.412,20.8985,-0.0631151,0.0746153,-0.0115002,0.0980974,-0.00775317
0.413,20.9425,-0.0119568,0.0734194,-0.0614626,0.064539,-0.0717338
0.415,20.8546,-0.0285667,0.0554808,-0.0269141,0.0615941,-0.0287178
0.417,20.8766,-0.054478,0.0554808,-0.00100275,0.0776791,0.00401433
0.419,20.8985,-0.0345462,0.0746153,-0.0400691,0.0805543,-0.0433293
0.42,20.7887,-0.0445121,-0.000726934,0.0452391,0.0268482,0.0575118
0.422,20.8106,-0.0518205,0.0746153,-0.0227949,0.0912546,-0.0218296
0.424,20.7887,-0.0225871,0.00884034,0.0137468,0.0209883,0.018352
0.426,20.8326,-0.00199095,0.0746153,-0.0726244,0.06095,-0.0844441
0.428,20.8766,-0.0631151,0.0734194,-0.0103043,0.0972068,-0.00556352
0.429,20.8106,-0.0239159,0.0722235,-0.0483076,0.0719593,-0.0542558
0.431,20.8326,-0.0338818,0.0746153,-0.0407335,0.080026,-0.04439
0.433,20.8326,-0.0199296,0.0542849,-0.0343553,0.0549865,-0.0388877
0.435,20.9205,-0.054478,0.0363462,0.0181318,0.0627213,0.0261478
0.436,20.9205,-0.039197,0.053089,-0.013892,0.0661153,-0.0132887
0.438,20.9425,-0.054478,0.102121,-0.0476432,0.114413,-0.050756
0.44,20.9205,-0.0597932,0.066244,-0.00645078,0.0894515,-0.00187681
0.442,20.8985,-0.0551424,0.026779,0.0283635,0.0553508,0.0384136
0.444,20.8985,-0.0285667,-0.0796569,0.108224,-0.0460204,0.129444
0.445,20.8766,-0.0259091,0.065048,-0.0391389,0.0674005,-0.0434921
0.447,20.8546,-0.0551424,0.0339544,0.021188,0.061109,0.0301365
0.449,20.8326,-0.0338818,0.148762,-0.11488,0.139392,-0.130931
0.451,20.8546,-0.0478341,0.0734194,-0.0255853,0.0878584,-0.0247796
0.453,20.7887,-0.0551424,0.00166488,0.0534775,0.0351145,0.0683394
0.454,20.8326,-0.0312243,-0.00431466,0.0355389,0.0160515,0.0447094
0.456,20.8766,-0.0571356,0.0829867,-0.0258511,0.100923,-0.0246408
0.458,20.8766,-0.0445121,0.0710276,-0.0265155,0.0838448,-0.0264454
0.46,20.8985,-0.0644439,0.0829867,-0.0185427,0.105457,-0.0161998
0.461,20.9425,-0.0332174,0.0506971,-0.0174797,0.0605026,-0.0178488
0.463,20.8985,-0.0551424,0.122452,-0.0673092,0.13045,-0.0744883
0.465,20.9425,-0.0451765,0.0770071,-0.0318306,0.0887385,-0.033312
0.467,20.9645,-0.0132856,0.0734194,-0.0601338,0.0663194,-0.0691717
0.469,20.8546,-0.054478,0.0459135,0.00856452,0.0701193,0.0152493
0.471,20.8106,-0.0551424,0.0746153,-0.0194729,0.0931981,-0.0173619
0.472,20.9205,-0.0345462,0.0734194,-0.0388732,0.0794915,-0.0421436
0.474,20.8106,-0.0870333,0.065048,0.0219853,0.105479,0.0349604
0.476,20.8546,-0.00797049,0.026779,-0.0188085,0.0262956,-0.0210462
0.478,20.8546,-0.0465053,0.0542849,-0.00777956,0.071785,-0.00431824
0.48,20.7887,-0.061122,0.0387381,0.0223839,0.0683429,0.0326622
0.482,20.8766,-0.0279023,0.0925539,-0.0646517,0.0910993,-0.0722878
0.483,20.8326,-0.054478,0.0698317,-0.0153537,0.0888613,-0.0135542
0.485,20.9425,-0.0551424,0.0351503,0.0199921,0.0619741,0.0288986
0.487,20.8546,-0.0690947,0.0829867,-0.013892,0.108413,-0.0100197
0.489,20.8546,-0.0651083,0.0363462,0.0287621,0.0694159,0.0396084
0.491,20.9205,-0.0571356,0.0734194,-0.0162838,0.0934134,-0.0136771
0.493,20.8766,-0.0465053,0.0770071,-0.0305018,0.0898226,-0.0309047
0.494,20.8546,-0.0279023,0.0375421,-0.00963986,0.0469432,-0.0087871
0.496,20.8766,-0.0405258,0.039934,0.000591803,0.0567154,0.00455715
0.498,20.8766,-0.0119568,0.0459135,-0.0339567,0.0435259,-0.0388531
0.5,20.8326,-0.0338818,0.0698317,-0.0359498,0.076755,-0.0377558
0.502,20.8106,-0.0551424,0.122452,-0.0673092,0.131045,-0.0734352
0.503,20.8546,-0.0338818,0.0973376,-0.0634557,0.0985724,-0.0704976
0.505,20.8985,-0.0438477,0.0315626,0.0122851,0.0520364,0.0190251
0.507,20.8326,-0.0378682,0.0495012,-0.011633,0.062572,-0.0102199
0.509,20.8546,-0.0132856,0.026779,-0.0134933,0.0293792,-0.0145792
0.51,20.8106,-0.0338818,0.0495012,-0.0156194,0.0601158,-0.015113
0.512,20.8985,-0.0378682,0.0746153,-0.0367471,0.0822835,-0.0397647
0.514,20.8546,-0.054478,0.126039,-0.0715614,0.133261,-0.0792008
0.516,20.8326,-0.0657727,-0.00192284,0.0676956,0.0399188,0.0855507
0.518,20.8985,-0.0126212,0.0937499,-0.0811286,0.0819929,-0.0938475
0.519,20.8106,-0.0498273,0.0758112,-0.0259839,0.0907824,-0.0257646
0.521,20.8546,-0.0551424,0.141586,-0.0864438,0.145926,-0.0962566
0.523,20.8106,-0.0152788,0.127235,-0.111956,0.109784,-0.130016
0.525,20.8546,-0.017272,0.121256,-0.103984,0.106959,-0.119891
0.526,20.8766,-0.0332174,0.0734194,-0.040202,0.0787856,-0.0438328
0.528,20.8106,-0.0132856,0.0937499,-0.0804642,0.0824045,-0.0930029
0.53,20.8326,-0.0445121,0.0554808,-0.0109686,0.0714731,-0.00844664
0.532,20.8326,-0.0279023,0.0793989,-0.0514967,0.0802605,-0.0573838
0.534,20.8546,-0.0644439,0.151153,-0.0867095,0.159003,-0.0952543
0.535,20.8985,-0.0132856,0.0925539,-0.0792683,0.0814583,-0.091601
0.537,20.8985,-0.032553,0.0351503,-0.00259728,0.0479779,-0.000334086
0.539,20.8985,-0.0285667,0.0674399,-0.0388732,0.0709409,-0.0429267
0.541,20.9425,-0.0239159,0.0160158,0.00790014,0.0274886,0.0116303
0.543,20.8766,-0.0245803,0.103317,-0.0787368,0.0967301,-0.0901189
0.544,20.9205,-0.0385326,0.00166488,0.0368677,0.0251902,0.0471016
0.546,20.9205,-0.0259091,0.0172117,0.00869741,0.0297378,0.0126826
0.548,20.8106,-0.0498273,-0.0222533,0.0720806,0.0139841,0.0893198
0.55,20.8326,-0.0385326,0.0160158,0.0225168,0.0365444,0.0303102
0.552,20.8546,-0.0511561,0.0124281,0.038728,0.041119,0.0507985
0.554,20.8326,-0.054478,0.026779,0.0276991,0.054735,0.0381612
0.555,20.8326,-0.0279023,0.0746153,-0.046713,0.0763214,-0.0519917
0.557,20.8546,-0.0657727,0.112884,-0.0471117,0.129666,-0.0497524
0.559,20.8985,-0.0551424,0.0554808,-0.000338354,0.0780853,0.00464822
0.561,20.9425,-0.0445121,-0.00670648,0.0512186,0.0220985,0.0645082
0.562,20.9205,-0.0279023,0.0746153,-0.046713,0.0761815,-0.0521964
0.566,20.8766,-0.0345462,0.0841826,-0.0496364,0.0882999,-0.0542867
0.568,20.8985,-0.0451765,0.0925539,-0.0473774,0.101489,-0.0505146
0.569,20.8766,-0.0524848,0.0172117,0.0352732,0.0463841,0.0462992
0.57,20.8546,-0.035875,0.0160158,0.0198592,0.0348979,0.0268336
0.572,20.8985,-0.0597932,0.0363462,0.0234469,0.0657117,0.0335857
0.573,20.8546,-0.0737454,0.0937499,-0.0200044,0.119989,-0.0151756
0.575,20.8985,0.00133102,0.0160158,-0.0173468,0.0117918,-0.0204974
0.576,20.8985,-0.0332174,0.0734194,-0.040202,0.0790187,-0.0431978
0.577,20.9205,-0.0146144,0.0447176,-0.0301032,0.0446153,-0.0335994
0.579,20.8766,-0.0465053,-0.0461715,0.0926768,-0.00771756,0.1132
0.58,20.7887,-0.0604576,0.0351503,0.0253072,0.0654576,0.0353047
0.582,20.8766,-0.0279023,0.0495012,-0.0215989,0.0562681,-0.0230072
0.584,20.8546,-0.0478341,0.141586,-0.0937521,0.141656,-0.104775
0.587,20.8985,-0.0332174,0.0985335,-0.0653161,0.098341,-0.0735356
0.588,20.8546,-0.076403,0.0746153,0.0017877,0.106421,0.00909498
0.589,20.8546,-0.0498273,0.0040567,0.0457706,0.0343944,0.0584975
0.591,20.8766,-0.0385326,0.0363462,0.00218635,0.0526951,0.00581545
0.592,20.8546,-0.0657727,0.11408,-0.0483076,0.131142,-0.0497563
0.593,20.8985,-0.0279023,0.0853785,-0.0574762,0.0844889,-0.0650628
0.595,20.8326,-0.0232515,0.103317,-0.0800656,0.0963938,-0.0918059
0.597,20.9205,-0.0332174,0.0542849,-0.0210674,0.0635865,-0.0212329
0.599,20.9205,-0.0551424,0.0758112,-0.0206688,0.0941443,-0.0187637
0.601,20.8546,-0.0551424,0.112884,-0.057742,0.123476,-0.0622205
0.603,20.8985,-0.0338818,0.00764443,0.0262374,0.0271313,0.0340398
0.604,20.8106,-0.0405258,0.026779,0.0137468,0.046295,0.0200052
0.606,20.8326,-0.0551424,0.0554808,-0.000338354,0.0780453,0.00527699
0.608,20.8766,-0.0498273,0.121256,-0.0714285,0.127017,-0.0784496
0.61,20.8546,-0.0445121,0.132019,-0.0875068,0.132029,-0.0981639
0.611,20.8766,-0.039197,0.039934,-0.000736984,0.0558876,0.0028701
0.613,20.8546,-0.035875,0.0363462,-0.000471225,0.0509909,0.00286559
0.615,20.8985,-0.0451765,0.0734194,-0.0282429,0.0859226,-0.0290913
0.616,20.8546,-0.054478,-0.0138819,0.06836,0.0234571,0.0853429
0.617,20.8766,-0.0551424,0.0734194,-0.018277,0.0921649,-0.0162077
0.619,20.8546,-0.054478,0.0542849,0.000193161,0.0766701,0.00583055
0.62,20.8106,-0.0338818,0.0734194,-0.0395376,0.079195,-0.0427757
0.621,20.8766,-0.0524848,0.0411299,0.011355,0.0650585,0.0185109
0.623,20.8326,-0.0332174,0.116472,-0.0832547,0.112731,-0.0942988
0.624,20.8985,-0.0571356,0.126039,-0.0689038,0.135119,-0.0751068
0.625,20.8985,-0.0232515,0.0590685,-0.035817,0.0611396,-0.0396803
0.627,20.8766,-0.0491629,0.0698317,-0.0206688,0.0856565,-0.0195863
0.628,20.8766,-0.0465053,0.0459135,0.000591801,0.0651526,0.005127
0.63,20.8326,-0.054478,0.0207994,0.0336786,0.0503285,0.0446057
0.631,20.8546,-0.017272,-0.012686,0.029958,0.000762832,0.036826
0.633,20.8326,-0.0445121,0.0853785,-0.0408664,0.0948928,-0.0440026
0.634,20.8766,-0.0345462,0.0734194,-0.0388732,0.0794915,-0.0421436
0.636,20.8546,-0.020594,0.0303667,-0.00977273,0.0367336,-0.00961223
0.637,20.8766,-0.0239159,0.136803,-0.112887,0.123749,-0.129292
0.639,20.8766,-0.0750742,0.0375421,0.0375321,0.0760769,0.0516383
0.64,20.9205,-0.0551424,0.0255831,0.0295594,0.0545121,0.039967
0.642,20.8326,-0.0524848,-0.0222533,0.0747381,0.0146615,0.0928477
0.643,20.8766,-0.0597932,0.0363462,0.0234469,0.0658911,0.0332324
0.645,20.8326,-0.00265534,0.126039,-0.123384,0.101365,-0.144366
0.646,20.8546,-0.0677659,0.0746153,-0.00684942,0.101019,-0.00131391
0.648,20.8766,-0.0631151,0.0734194,-0.0103043,0.0971915,-0.00582448
0.649,20.9205,-0.076403,0.0471094,0.0292936,0.0847202,0.0416811
0.651,20.8766,-0.0445121,0.103317,-0.058805,0.108972,-0.065106
0.652,20.8546,-0.0551424,0.0937499,-0.0386074,0.108444,-0.0395002
0.653,20.8326,-0.039197,-0.00311875,0.0423157,0.022104,0.0533682
0.655,20.8766,-0.0491629,0.108101,-0.0589379,0.11564,-0.0648367
